Wavelength(nm)	R	G	B
300	0	4.71769433186754e-07	0
301	0	0.000292445743643343	2.82766518220654e-06
302	5.65076881376387e-06	0.000584419717853500	5.65076881385371e-06
303	8.47387244541630e-06	0.000876393692063656	8.47387244550087e-06
304	1.12969760770687e-05	0.00116836766627381	1.12969760771480e-05
305	1.41200797087211e-05	0.00146034164048397	1.41200797087952e-05
306	1.69431833403736e-05	0.00175231561469413	1.69431833404424e-05
307	1.97662869720260e-05	0.00204428958890428	1.97662869720895e-05
308	2.25893906036784e-05	0.00233626356311444	2.25893906037367e-05
309	2.54124942353308e-05	0.00262823753732460	2.54124942353839e-05
310	2.82355978669833e-05	0.00292021151153475	2.82355978670310e-05
311	3.10587014986357e-05	0.00321218548574491	3.10587014986782e-05
312	3.38818051302881e-05	0.00350415945995506	3.38818051303254e-05
313	3.67049087619405e-05	0.00379613343416522	3.67049087619725e-05
314	3.95280123935930e-05	0.00408810740837538	3.95280123936197e-05
315	4.23511160252454e-05	0.00438008138258553	4.23511160252669e-05
316	4.51742196568978e-05	0.00519104006717975	4.51742196569140e-05
317	4.79973232885502e-05	0.00684829116516975	4.79973232885612e-05
318	0.000349163120176989	0.00850554226315975	5.08204269202084e-05
319	0.000812390501056196	0.0101627933611498	5.36435305518555e-05
320	0.00127561788193540	0.0118200444591398	5.64666341835027e-05
321	0.00173884526281461	0.0134772955571298	5.92897378151499e-05
322	0.00220207264369382	0.0151345466551198	6.21128414467970e-05
323	0.00266530002457302	0.0167917977531098	6.49359450784442e-05
324	0.00312852740545223	0.0184490488510998	6.77590487100914e-05
325	0.00359175478633144	0.0201062999490898	7.05821523417407e-05
326	0.00405498216721064	0.0225414165897432	7.34052559733908e-05
327	0.00451820954808985	0.0251422978873832	7.62283596050410e-05
328	0.00498143692896905	0.0277431791850231	7.90514632366912e-05
329	0.00544466430984826	0.0303440604826630	8.18745668683413e-05
330	0.00593531675478502	0.0329449417803030	8.46976704999915e-05
331	0.00696075209198040	0.0355458230779429	8.75207741316417e-05
332	0.00798618742917577	0.0381467043755829	9.03438777632918e-05
333	0.00901162276637114	0.0407475856732228	9.31669813949420e-05
334	0.0100370581035665	0.0433484669708627	9.59900850265921e-05
335	0.0110624934407619	0.0459493482685027	9.88131886582423e-05
336	0.0120879287779573	0.0485502295661426	0.000101636292289892
337	0.0131133641151526	0.0511511108637825	0.000104459395921543
338	0.0141387994523480	0.0537519921614225	0.000107282499553193
339	0.0151642347895434	0.0553162212845325	0.000110105603184843
340	0.0161896701267387	0.0565963338670231	0.000112928706816493
341	0.0172151054639341	0.0578764464495137	0.000115751810448143
342	0.0250407905139915	0.0591565590320044	0.000118574914079793
343	0.0328779354026090	0.0604366716144950	0.000175850330523250
344	0.0407150802912265	0.0617167841969856	0.000290885871371372
345	0.0485522251798441	0.0629968967794762	0.000405921412219494
346	0.0563893700684616	0.0642770093619669	0.000520956953067616
347	0.0608439934473141	0.0655571219444575	0.000635992493915739
348	0.0652088344235924	0.0668372345269481	0.000751028034763861
349	0.0695736753998707	0.0681173471094388	0.000866063575611983
350	0.0739385163761490	0.0693974596919294	0.000981099116460105
351	0.0783033573524273	0.0706775722744200	0.00109613465730823
352	0.0826681983287056	0.0719576848569107	0.00121117019815635
353	0.0870330393049839	0.0732377974394013	0.00132620573900447
354	0.0911780525873558	0.0743524850090325	0.00144124127985259
355	0.0931297293371277	0.0752499011605399	0.00155627682070072
356	0.0950814060868996	0.0761473173120473	0.00167726056061951
357	0.0970330828366715	0.0770447334635546	0.00367440981961725
358	0.0989847595864434	0.0779421496150620	0.00567155907861499
359	0.100936436336215	0.0788395657665694	0.00766870833761273
360	0.102888113085987	0.0797369819180767	0.00966585759661047
361	0.104839789835759	0.0806343980695841	0.0116630068556082
362	0.106791466585531	0.0815318142210915	0.0136601561146059
363	0.108743143335303	0.0824292303725988	0.0156573053736037
364	0.110694820085075	0.0833266465241062	0.0176544546326014
365	0.112646496834847	0.0842240626756136	0.0196516038915992
366	0.113491307226556	0.0851214788271209	0.0216487531505969
367	0.114160670056986	0.0857830189052464	0.0236459024095946
368	0.114830032887415	0.0856991632959524	0.0263411912434438
369	0.115499395717845	0.0856153076866585	0.0306292260789335
370	0.116168758548274	0.0855314520773645	0.0349172609144233
371	0.116838121378704	0.0854475964680706	0.0392052957499130
372	0.117507484209133	0.0853637408587766	0.0434933305854027
373	0.118176847039562	0.0852798852494827	0.0477813654208924
374	0.118846209869992	0.0851960296401887	0.0520694002563821
375	0.119515572700421	0.0851121740308948	0.0563574350918718
376	0.120184935530851	0.0850283184216008	0.0658486930321411
377	0.120854298361280	0.0849444628123069	0.0774672112192336
378	0.121649972020455	0.0847449966601023	0.0890857294063261
379	0.122635770924665	0.0842651427879303	0.100704247593419
380	0.123621569828874	0.0837852889157583	0.118429696138033
381	0.124607368733083	0.0833054350435863	0.138617442555094
382	0.125593167637292	0.0828255811714143	0.158262217712557
383	0.126578966541501	0.0823457272992423	0.177424096265858
384	0.127564765445710	0.0818658734270702	0.196585974819159
385	0.128550564349920	0.0813860195548982	0.217125657693977
386	0.129536363254129	0.0809061656827262	0.239499999788779
387	0.130522162158338	0.0804263118105542	0.261874341883581
388	0.130124021687720	0.0799464579383822	0.298746852497019
389	0.126024574676052	0.0794666040662101	0.314769578900778
390	0.121925127664385	0.0789867501940381	0.327013023396938
391	0.117825680652717	0.0785068963218661	0.339256467893098
392	0.113726233641050	0.0770642393387765	0.349928598373869
393	0.109626786629382	0.0746009167125139	0.359752926972749
394	0.104868769650948	0.0721375940862514	0.369577255571630
395	0.0977225981157647	0.0696742714599888	0.379401584170510
396	0.0905764265805811	0.0672109488337262	0.389549520327486
397	0.0834302550453975	0.0647476262074636	0.400527789270563
398	0.0789822190125433	0.0622843035812011	0.411506058213640
399	0.0762692794342078	0.0598209809549385	0.422484327156717
400	0.0735563398558723	0.0573576583286759	0.437526352180032
401	0.0708434002775367	0.0548943357024134	0.453699608120668
402	0.0681304606992012	0.0526547449746953	0.469872864061304
403	0.0654175211208657	0.0516353231206412	0.490748860574187
404	0.0627045815425302	0.0506159012665870	0.511679229812587
405	0.0599916419641946	0.0495964794125329	0.528676638375552
406	0.0579803517578124	0.0485770575584787	0.541844824930450
407	0.0563752849787420	0.0475576357044246	0.555013011485348
408	0.0547702181996717	0.0465382138503705	0.568181198040246
409	0.0531651514206014	0.0455187919963163	0.581349384595144
410	0.0515600846415311	0.0444993701422622	0.585278621379214
411	0.0499550178624607	0.0434799482882080	0.583973629755778
412	0.0483499510833904	0.0424605264341539	0.582668638132342
413	0.0467448843043201	0.0414411045800997	0.581363646508906
414	0.0451398175252497	0.0403130838087428	0.580058654885470
415	0.0435347507461794	0.0391310768530516	0.578753663262033
416	0.0419296839671091	0.0379490698973604	0.577448671638597
417	0.0403246171880388	0.0367670629416692	0.576143680015161
418	0.0389427964393038	0.0355850559859781	0.579464582479557
419	0.0376106302628101	0.0344030490302869	0.584898274181278
420	0.0362784640863163	0.0332210420745957	0.590331965882998
421	0.0349462979098225	0.0320390351189045	0.595765657584719
422	0.0336141317333288	0.0308570281632133	0.601199349286440
423	0.0322819655568350	0.0296750212075221	0.606633040988160
424	0.0309497993803413	0.0284930142518309	0.613649335632576
425	0.0296176332038475	0.0273110072961397	0.623544950726587
426	0.0282854670273537	0.0261290003404485	0.633440565820597
427	0.0269533008508600	0.0259615195494638	0.643241823264834
428	0.0256211346743662	0.0261008590122450	0.650953234844510
429	0.0242889684978725	0.0262401984750263	0.658664646424186
430	0.0231570936248104	0.0263795379378076	0.666376058003862
431	0.0223635362786433	0.0265188774005889	0.674087469583538
432	0.0215699789324762	0.0266582168633701	0.681798881163213
433	0.0207764215863091	0.0267975563261514	0.687755746876707
434	0.0199828642401419	0.0269368957889327	0.692657918483927
435	0.0191893068939749	0.0270762352517140	0.697560090091146
436	0.0183957495478077	0.0272155747144952	0.702462261698365
437	0.0176021922016407	0.0273549141772765	0.707364433305584
438	0.0168086348554735	0.0274955904391128	0.712266604912803
439	0.0160150775093064	0.0276986076573787	0.717168776520023
440	0.0152215201631393	0.0279016248756446	0.722070948127242
441	0.0144279628169722	0.0281046420939105	0.722428501261305
442	0.0136344054708051	0.0283076593121764	0.721563153365945
443	0.0129796600884089	0.0285106765304423	0.720697805470585
444	0.0123368389089899	0.0287136937487083	0.719832457575225
445	0.0116940177295708	0.0289167109669742	0.718967109679865
446	0.0110511965501518	0.0291197281852401	0.718101761784506
447	0.0104083753707328	0.0293227454035060	0.717236413889146
448	0.00976555419131372	0.0295257626217719	0.716371065993786
449	0.00912273301189468	0.0297287798400378	0.723998372007917
450	0.00847991183247564	0.0297837478754438	0.731766502380307
451	0.00783709065305661	0.0297865709790754	0.739534632752697
452	0.00719426947363757	0.0297893940827070	0.747302763125087
453	0.00655144829421853	0.0297922171863387	0.755070893497476
454	0.00590862711479949	0.0297950402899703	0.762839023869866
455	0.00556834009070205	0.0297978633936020	0.770607154242256
456	0.00557116319433369	0.0298006864972336	0.778375284614645
457	0.00557398629796533	0.0298035096008652	0.786143414987035
458	0.00557680940159698	0.0346318391250296	0.793911545359425
459	0.00557963250522862	0.0398211383265330	0.801679675731815
460	0.00558245560886026	0.0450104375280365	0.809447806104204
461	0.00558527871249190	0.0501997367295399	0.807780785031663
462	0.00558810181612354	0.0553890359310434	0.803268284221684
463	0.00559092491975519	0.0618956247237728	0.798755783411706
464	0.00559374802338683	0.0689536107342485	0.794243282601728
465	0.00559657112701847	0.0760115967447242	0.789730781791749
466	0.00559939423065011	0.0830695827551999	0.785218280981771
467	0.00560764079679620	0.0907291339081545	0.780705780171793
468	0.00612655022834644	0.109080997060060	0.776193279361814
469	0.00664545965989668	0.127432860211965	0.771620561239044
470	0.00716436909144692	0.147250199064017	0.766523654829873
471	0.00768327852299715	0.167214729491476	0.761426748420701
472	0.00820218795454739	0.187179259918936	0.756329842011530
473	0.00872109738609763	0.223215819756026	0.751232935602359
474	0.00924000681764787	0.269895096327353	0.746136029193187
475	0.00975891624919810	0.297888701837158	0.742916717052032
476	0.0102778256807483	0.315510549541282	0.739833830749713
477	0.0107967351122986	0.344206130356855	0.736750944447394
478	0.0113156445438488	0.389300426754502	0.733668058145075
479	0.0118345539753991	0.438187146917554	0.730585171842756
480	0.0121414338301882	0.467759132081576	0.727502285540437
481	0.0122733142541999	0.497653858836892	0.724419399238118
482	0.0124051946782116	0.546861812385308	0.716817800489474
483	0.0125370751022233	0.585768071611907	0.708746599587105
484	0.0126689555262350	0.618266044817059	0.700675398684736
485	0.0128008359502468	0.644559407362424	0.692604197782368
486	0.0129327163742585	0.678584110834597	0.684532996879999
487	0.0130645967982702	0.698741013261299	0.676461795977630
488	0.0131964772222819	0.715051823825858	0.668390595075261
489	0.0133283576462936	0.749254195841538	0.659224897347627
490	0.0134602380703053	0.782092020000899	0.646621133678979
491	0.0135921184943171	0.799386938326192	0.634017370010331
492	0.0137058892077456	0.816681856651485	0.621413606341683
493	0.0136334178670374	0.828008272040340	0.608809842673036
494	0.0135609465263291	0.836205279302921	0.596438076779121
495	0.0134884751856209	0.844402286565501	0.584080634566980
496	0.0134160038449126	0.852599293828082	0.571723192354840
497	0.0133435325042044	0.860796301090662	0.557825815459503
498	0.0132710611634961	0.868173239352858	0.536223543822448
499	0.0131985898227879	0.874414188424202	0.514621272185394
500	0.0131261184820797	0.880655137495546	0.495138668590984
501	0.0130536471413714	0.886896086566890	0.475801125489963
502	0.0129811758006632	0.893137035638234	0.458726417341484
503	0.0129087044599549	0.899377984709578	0.442613395114495
504	0.0128362331192467	0.905572678721722	0.426500372887506
505	0.0135439237634027	0.911445323615768	0.410387350660517
506	0.0147074054245274	0.917317968509813	0.392911771209032
507	0.0158708870856521	0.923190613403859	0.375343817337472
508	0.0170343687467768	0.929063258297904	0.358425835160216
509	0.0181978504079015	0.934935903191950	0.342634812971459
510	0.0193613320690262	0.940808548085996	0.326843790782701
511	0.0205248137301509	0.947160886594153	0.311052768593944
512	0.0216882953912756	0.954414015113595	0.298876600678191
513	0.0228517770524002	0.961667143633036	0.286956537974484
514	0.0240152587135249	0.968920272152478	0.275036475270778
515	0.0251787403746496	0.976173400671919	0.263116412567071
516	0.0263422220357743	0.980965746382701	0.249740045861829
517	0.0273552636661206	0.985724309787026	0.235726157645729
518	0.0275946736533637	0.990482873191350	0.221891911455839
519	0.0278340836406067	0.995241436595675	0.213419358824484
520	0.0280734936278498	1	0.204946806193129
521	0.0283129036150929	0.996346527946860	0.196474253561774
522	0.0285523136023360	0.990074355277758	0.188001700930419
523	0.0287917235895791	0.983802182608655	0.179496742040443
524	0.0290311335768222	0.977530009939553	0.170980565690902
525	0.0292705435640653	0.970097069358030	0.162464389341362
526	0.0295099535513083	0.961208112245343	0.153905827088144
527	0.0297493635385514	0.952319155132656	0.141778733990539
528	0.0299887735257945	0.944352517800544	0.129651640892933
529	0.0302281835130376	0.940077144376683	0.117524547795328
530	0.0296585742837822	0.935801770952823	0.112504300488445
531	0.0287465585789838	0.931526397528962	0.109085994736273
532	0.0278345428741854	0.927251024105101	0.105667688984102
533	0.0269225271693870	0.922975650681241	0.102249383231931
534	0.0260105114645887	0.918700277257380	0.0988310774797598
535	0.0250984957597903	0.914424903833519	0.0954127717275885
536	0.0241864800549919	0.911538263551133	0.0919944659754173
537	0.0232744643501935	0.909587768741434	0.0885761602232461
538	0.0223624486453951	0.907637273931735	0.0857509483335582
539	0.0214504329405968	0.905686779122036	0.0838349049053893
540	0.0205384172357984	0.903736284312337	0.0819188614772204
541	0.0196264015310000	0.901785789502638	0.0800028180490515
542	0.0188884815705810	0.899835294692939	0.0780867746208826
543	0.0186653970027520	0.897884799883240	0.0761707311927137
544	0.0184423124349229	0.895934305073541	0.0742546877645448
545	0.0182192278670938	0.893983810263842	0.0723386443363759
546	0.0179961432992647	0.892033315454143	0.0704226009082070
547	0.0177730587314357	0.890082820644444	0.0685065574800381
548	0.0175499741636066	0.888063101937641	0.0665905140518692
549	0.0173268895957775	0.885220621614553	0.0646744706237003
550	0.0171038050279485	0.882378141291464	0.0626334581496144
551	0.0168807204601194	0.879535660968375	0.0602910608539556
552	0.0166576358922903	0.876693180645286	0.0579486635582968
553	0.0164345513244612	0.873850700322197	0.0556062662626379
554	0.0162114667566322	0.871008219999108	0.0532638689669791
555	0.0162282751996433	0.868165739676019	0.0509214716713203
556	0.0163063182500572	0.865323259352931	0.0485790743756614
557	0.0163843613004711	0.862480779029842	0.0462366770800026
558	0.0164624043508850	0.858430449026418	0.0438942797843437
559	0.0165404474012990	0.853401847941872	0.0415518824886849
560	0.0166184904517129	0.848373246857326	0.0392094851930261
561	0.0166965335021268	0.843344645772780	0.0368670878973672
562	0.0167745765525407	0.838316044688234	0.0348950022642604
563	0.0168526196029547	0.832097772976986	0.0329279594827883
564	0.0169306626533686	0.817315975348520	0.0309609167013162
565	0.0170087057037825	0.802534177720054	0.0289938739198441
566	0.0170867487541964	0.787752380091588	0.0270268311383720
567	0.0171647918046103	0.773677456421183	0.0250597883568999
568	0.0220346920054490	0.759656538252505	0.0230927455754278
569	0.0290503872907179	0.746343985576909	0.0211257027939557
570	0.0360660825759869	0.735418317221693	0.0191586600124836
571	0.0430817778612559	0.724492648866476	0.0171916172310115
572	0.0500974731465249	0.713566980511260	0.0152245744495394
573	0.0635333766835272	0.702637056781716	0.0141206949040686
574	0.0831986584506251	0.691621538490488	0.0137515767335181
575	0.102619260302054	0.680606020199260	0.0133824585629676
576	0.121303003366502	0.669590501908032	0.0130133403924171
577	0.146544612888050	0.658574983616804	0.0126442222218666
578	0.174850375792857	0.649128524461647	0.0122751040513161
579	0.202319344942834	0.640225110592865	0.0119059858807656
580	0.231040794692625	0.631321696724082	0.0115368677102151
581	0.262980299167038	0.622418282855300	0.0111677495396646
582	0.306193789245732	0.613695212948225	0.0107986313691141
583	0.349185061504693	0.605209306490217	0.0104295131985636
584	0.408477079194117	0.596723400032210	0.0100603950280131
585	0.446178090627368	0.588237493574202	0.00977790038181177
586	0.483256968487850	0.579751587116194	0.00962759516506914
587	0.519595241655405	0.571265680658186	0.00947728994832650
588	0.556319023201317	0.562779774200179	0.00932698473158387
589	0.614290088116918	0.553069711746345	0.00917667951484123
590	0.635902328802110	0.540389102004362	0.00902637429809860
591	0.652737277683905	0.527708492262380	0.00887606908135596
592	0.666505029650985	0.515027882520397	0.00872576386461333
593	0.680272781618066	0.506606660903628	0.00857545864787069
594	0.686981883156245	0.498873297154971	0.00842515343112806
595	0.692067467229349	0.491139933406315	0.00827484821438542
596	0.697153051302452	0.483406569657658	0.00812454299764279
597	0.702238635375556	0.475673205909002	0.00797423778090015
598	0.707324219448659	0.467919864232995	0.00782393256415752
599	0.712409803521763	0.459807144361611	0.00767362734741488
600	0.716323820659401	0.451694424490226	0.00760519916998093
601	0.713014932661319	0.443581704618842	0.00758145775768178
602	0.709706044663237	0.435468984747457	0.00755771634538262
603	0.706397156665154	0.423197033770217	0.00753397493308346
604	0.703088268667072	0.400570092629739	0.00751023352078431
605	0.699779380668990	0.383388292193565	0.00748649210848515
606	0.696470492670908	0.368602758276575	0.00746275069618599
607	0.693161604672825	0.353817224359585	0.00743900928388684
608	0.689852716674743	0.339031690442595	0.00741526787158768
609	0.685726856467494	0.326528238254206	0.00739152645928852
610	0.679952765049106	0.314844092224392	0.00736778504698937
611	0.674178673630719	0.303159946194579	0.00732416524446708
612	0.668404582212331	0.291475800164765	0.00718714935187046
613	0.662630490793944	0.279791654134951	0.00705013345927385
614	0.656856399375556	0.266981374802794	0.00691311756667723
615	0.651701199360478	0.252937137888647	0.00677610167408062
616	0.647352355875142	0.238892900974500	0.00663908578148400
617	0.643003512389805	0.225277855970355	0.00650206988888739
618	0.638654668904469	0.215344319838774	0.00636505399629077
619	0.634305825419133	0.205410783707193	0.00622803810369416
620	0.629956981933797	0.195477247575612	0.00609102221109754
621	0.625608138448461	0.185543711444031	0.00595400631850092
622	0.621259294963125	0.177700899505574	0.00581699042590431
623	0.616447318300838	0.170289731893948	0.00567997453330769
624	0.611385243182932	0.162878564282323	0.00599586480716491
